t_utc[s],a_x[m/s2],a_y[m/s2],a_z[m/s2],w_x[rad/s],w_y[rad/s],w_z[rad/s]
1781271120.071576,-0.202779,-2.036274,-9.590769,-0.003425,0.169677,-0.040580
1781271120.081576,-0.186325,-2.035035,-9.591366,-0.025756,0.156644,-0.031254
1781271120.091576,-0.171927,-2.031747,-9.592332,-0.040002,0.131417,-0.025444
1781271120.101576,-0.161470,-2.028043,-9.593297,-0.036951,0.071918,-0.022029
1781271120.111576,-0.156174,-2.024536,-9.594126,-0.036818,0.030584,-0.034155
1781271120.121576,-0.152814,-2.021096,-9.594905,-0.040126,0.026440,-0.052158
1781271120.131576,-0.149223,-2.016883,-9.595848,-0.047771,0.023490,-0.072133
1781271120.141576,-0.145113,-2.011858,-9.596966,-0.061995,0.026519,-0.085215
1781271120.151576,-0.140342,-2.005433,-9.598381,-0.075191,0.032190,-0.087713
1781271120.161576,-0.135783,-1.996955,-9.600215,-0.103582,0.022701,-0.081716
1781271120.171576,-0.132847,-1.985926,-9.602543,-0.128656,0.005405,-0.066971
1781271120.181576,-0.131810,-1.972324,-9.605360,-0.154406,-0.008641,-0.057575
1781271120.191576,-0.132822,-1.956762,-9.608529,-0.166790,-0.036875,-0.050220
1781271120.201576,-0.137180,-1.940980,-9.611668,-0.161414,-0.072903,-0.043437
1781271120.211576,-0.145199,-1.926059,-9.614551,-0.152916,-0.110477,-0.049363
1781271120.221576,-0.155775,-1.912228,-9.617146,-0.137258,-0.132976,-0.064282
1781271120.231576,-0.168335,-1.899477,-9.619461,-0.133240,-0.156069,-0.075464
1781271120.241576,-0.183022,-1.887164,-9.621616,-0.126155,-0.179632,-0.079246
1781271120.251576,-0.200318,-1.875854,-9.623482,-0.113811,-0.213607,-0.083486
1781271120.261576,-0.220700,-1.866075,-9.624937,-0.093755,-0.240584,-0.081190
1781271120.271576,-0.243232,-1.858205,-9.625917,-0.074587,-0.260128,-0.085201
1781271120.281576,-0.267108,-1.851763,-9.626525,-0.062683,-0.269210,-0.095453
1781271120.291576,-0.291089,-1.846727,-9.626797,-0.047445,-0.266887,-0.103368
1781271120.301576,-0.314401,-1.842701,-9.626836,-0.044502,-0.254094,-0.097873
1781271120.311576,-0.336045,-1.838478,-9.626912,-0.051297,-0.229191,-0.083494
1781271120.321576,-0.354927,-1.833459,-9.627192,-0.058785,-0.192815,-0.064917
1781271120.331576,-0.370917,-1.827647,-9.627694,-0.066633,-0.161038,-0.046158
1781271120.341576,-0.384263,-1.820864,-9.628456,-0.078579,-0.131883,-0.031112
1781271120.351576,-0.394626,-1.812885,-9.629543,-0.088719,-0.091781,-0.018730
1781271120.361576,-0.401274,-1.804152,-9.630908,-0.095158,-0.051348,-0.012188
1781271120.371576,-0.404198,-1.795269,-9.632446,-0.090486,-0.016455,-0.005725
1781271120.381576,-0.404258,-1.786966,-9.633987,-0.080876,0.013463,-0.002024
1781271120.391576,-0.401212,-1.780202,-9.635367,-0.061323,0.050489,-0.000325
1781271120.401576,-0.394638,-1.775681,-9.636472,-0.034805,0.084651,0.001559
1781271120.411576,-0.385134,-1.773995,-9.637167,-0.000332,0.112165,-0.001461
1781271120.421576,-0.373384,-1.774993,-9.637446,0.018709,0.127743,-0.006778
1781271120.431576,-0.361017,-1.777750,-9.637409,0.034353,0.127003,-0.003845
1781271120.441576,-0.349241,-1.781310,-9.637185,0.037372,0.118348,-0.000360
1781271120.451576,-0.337969,-1.784772,-9.636947,0.031396,0.118620,0.007036
1781271120.461576,-0.326296,-1.787287,-9.636883,0.018619,0.128672,0.017604
1781271120.471576,-0.313248,-1.787756,-9.637228,-0.004068,0.150299,0.028274
1781271120.481576,-0.298989,-1.785801,-9.638044,-0.031622,0.155554,0.038537
1781271120.491576,-0.285095,-1.781640,-9.639235,-0.053267,0.145236,0.046750
1781271120.501576,-0.273128,-1.775202,-9.640769,-0.078821,0.122003,0.051978
1781271120.511576,-0.263320,-1.766463,-9.642647,-0.100628,0.101104,0.048308
1781271120.521576,-0.254843,-1.755852,-9.644812,-0.115402,0.094598,0.046815
1781271120.531576,-0.246402,-1.744472,-9.647096,-0.116182,0.096617,0.043236
1781271120.541576,-0.237669,-1.733319,-9.649326,-0.113407,0.100108,0.037722
1781271120.551576,-0.228414,-1.722634,-9.651463,-0.105485,0.098895,0.030715
1781271120.561576,-0.220651,-1.713173,-9.653327,-0.089794,0.068105,0.030526
1781271120.571576,-0.215687,-1.705303,-9.654833,-0.072046,0.048299,0.033872
1781271120.581576,-0.211387,-1.699119,-9.656018,-0.055466,0.056194,0.043541
1781271120.591576,-0.206058,-1.693917,-9.657047,-0.047386,0.072001,0.058029
1781271120.601575,-0.199294,-1.689235,-9.658009,-0.044695,0.088422,0.065366
1781271120.611575,-0.191345,-1.684790,-9.658946,-0.045930,0.099007,0.067046
1781271120.621575,-0.182687,-1.680585,-9.659846,-0.040301,0.101195,0.060816
1781271120.631575,-0.174107,-1.676914,-9.660643,-0.032087,0.093077,0.043094
1781271120.641575,-0.166358,-1.674604,-9.661180,-0.017025,0.079429,0.024856
1781271120.651575,-0.159497,-1.673785,-9.661438,0.000015,0.068954,0.010042
1781271120.661575,-0.153061,-1.674385,-9.661438,0.012423,0.065996,-0.001561
1781271120.671575,-0.146310,-1.675705,-9.661314,0.013778,0.072970,-0.003715
1781271120.681575,-0.138483,-1.677001,-9.661204,0.013194,0.084708,-0.008945
1781271120.691575,-0.128786,-1.678225,-9.661126,0.012385,0.107766,-0.015696
1781271120.701575,-0.116726,-1.679827,-9.661000,0.019778,0.133669,-0.024580
1781271120.711575,-0.102264,-1.682030,-9.660781,0.027401,0.158347,-0.027764
1781271120.721575,-0.085653,-1.685313,-9.660369,0.039306,0.172772,-0.024786
1781271120.731575,-0.068826,-1.689650,-9.659746,0.047638,0.165475,-0.020292
1781271120.741575,-0.053752,-1.694914,-9.658920,0.059422,0.140645,-0.011022
1781271120.751575,-0.041557,-1.700794,-9.657947,0.062736,0.108066,-0.000610
1781271120.761575,-0.032677,-1.706910,-9.656903,0.061946,0.078187,0.016043
1781271120.771575,-0.026758,-1.712610,-9.655912,0.055674,0.050642,0.029195
1781271120.781575,-0.023828,-1.717333,-9.655081,0.040419,0.019503,0.042032
1781271120.791575,-0.024238,-1.720366,-9.654540,0.019683,-0.009412,0.055302
1781271120.801575,-0.026738,-1.720710,-9.654472,-0.012724,-0.020143,0.065178
1781271120.811575,-0.030209,-1.717599,-9.655015,-0.051124,-0.026323,0.080712
1781271120.821575,-0.034833,-1.710867,-9.656194,-0.087458,-0.035772,0.101159
1781271120.831575,-0.040545,-1.701126,-9.657893,-0.114586,-0.041684,0.120779
1781271120.841575,-0.047052,-1.689367,-9.659927,-0.129085,-0.046474,0.142584
1781271120.851575,-0.054545,-1.676840,-9.662070,-0.126037,-0.052468,0.168430
1781271120.861575,-0.062131,-1.665043,-9.664064,-0.114871,-0.039902,0.191906
1781271120.871575,-0.068163,-1.655087,-9.665733,-0.088261,-0.013944,0.214855
1781271120.881575,-0.072330,-1.648149,-9.666889,-0.050564,0.003916,0.225384
1781271120.891575,-0.075011,-1.645257,-9.667362,-0.005204,0.013538,0.222178
1781271120.901575,-0.076984,-1.646643,-9.667110,0.037005,0.017711,0.203373
1781271120.911575,-0.078373,-1.652128,-9.666163,0.079143,0.016104,0.177111
1781271120.921575,-0.079586,-1.661445,-9.664556,0.117589,0.012453,0.153174
1781271120.931575,-0.081232,-1.674339,-9.662316,0.151939,0.003358,0.140303
1781271120.941575,-0.083927,-1.690607,-9.659459,0.184978,-0.007787,0.145851
1781271120.951575,-0.087133,-1.709480,-9.656107,0.206821,0.000032,0.166060
1781271120.961575,-0.088550,-1.729451,-9.652538,0.206642,0.035963,0.192649
1781271120.971575,-0.086365,-1.748215,-9.649177,0.181798,0.085126,0.232703
1781271120.981575,-0.079747,-1.763774,-9.646403,0.140630,0.146317,0.277552
1781271120.991575,-0.068354,-1.775045,-9.644422,0.095095,0.200554,0.323906
1781271121.001575,-0.053003,-1.781824,-9.643269,0.051467,0.240394,0.366580
1781271121.011575,-0.035787,-1.784825,-9.642793,0.011466,0.255815,0.405487
1781271121.021575,-0.019399,-1.784226,-9.642951,-0.022706,0.235649,0.439122
1781271121.031575,-0.007158,-1.780331,-9.643689,-0.055971,0.182764,0.459943
1781271121.041575,-0.001007,-1.773439,-9.644962,-0.089303,0.114412,0.460623
1781271121.051575,-0.001332,-1.762869,-9.646899,-0.131160,0.043622,0.436813
1781271121.061575,-0.007258,-1.748015,-9.649597,-0.177855,-0.009918,0.397672
1781271121.071575,-0.016270,-1.728748,-9.653055,-0.219645,-0.040910,0.343334
1781271121.081575,-0.026522,-1.705794,-9.657114,-0.250981,-0.058620,0.283186
1781271121.091575,-0.036797,-1.680683,-9.661481,-0.265821,-0.063640,0.220836
1781271121.101575,-0.045850,-1.655584,-9.665775,-0.251414,-0.058877,0.160133
1781271121.111575,-0.053230,-1.632497,-9.669665,-0.220955,-0.052818,0.099785
1781271121.121575,-0.059069,-1.613312,-9.672852,-0.174454,-0.045990,0.040252
1781271121.131575,-0.063529,-1.599441,-9.675128,-0.113276,-0.042542,-0.012912
1781271121.141575,-0.067047,-1.591473,-9.676420,-0.052424,-0.041582,-0.059919
1781271121.151575,-0.070014,-1.589368,-9.676745,0.007245,-0.045497,-0.097156
1781271121.161575,-0.072988,-1.592947,-9.676134,0.062643,-0.049802,-0.120209
1781271121.171575,-0.075727,-1.601484,-9.674703,0.107086,-0.045492,-0.130955
1781271121.181575,-0.077960,-1.613427,-9.672700,0.133612,-0.044034,-0.133247
1781271121.191575,-0.079921,-1.626912,-9.670425,0.141057,-0.041333,-0.123154
1781271121.201575,-0.081622,-1.640348,-9.668141,0.132653,-0.029078,-0.095465
1781271121.211575,-0.082087,-1.651791,-9.666189,0.100826,-0.004027,-0.050942
1781271121.221575,-0.080408,-1.659264,-9.664924,0.049747,0.032639,0.007547
1781271121.231575,-0.076108,-1.661158,-9.664634,-0.010965,0.068267,0.073353
1781271121.241575,-0.069679,-1.656925,-9.665408,-0.077479,0.096431,0.126673
1781271121.251575,-0.061812,-1.646228,-9.667288,-0.146346,0.113502,0.155428
1781271121.261575,-0.053299,-1.629167,-9.670227,-0.206852,0.117803,0.163859
1781271121.271575,-0.044195,-1.606603,-9.674044,-0.255673,0.122369,0.153901
1781271121.281575,-0.034799,-1.580228,-9.678424,-0.288329,0.116222,0.130236
1781271121.291575,-0.026325,-1.551750,-9.683057,-0.301250,0.093772,0.096834
1781271121.301575,-0.020107,-1.522436,-9.687724,-0.305057,0.059447,0.062173
1781271121.311575,-0.016562,-1.493458,-9.692241,-0.293580,0.028229,0.028184
1781271121.321575,-0.015474,-1.465937,-9.696444,-0.273579,-0.000349,0.001311
1781271121.331575,-0.016337,-1.440586,-9.700243,-0.248514,-0.020387,-0.022396
1781271121.341575,-0.018477,-1.418038,-9.703562,-0.217650,-0.034065,-0.047010
1781271121.351575,-0.021606,-1.398923,-9.706331,-0.178222,-0.048821,-0.076425
1781271121.361575,-0.026229,-1.383991,-9.708462,-0.132301,-0.073569,-0.114021
1781271121.371575,-0.033230,-1.373878,-9.709877,-0.075986,-0.109007,-0.158051
1781271121.381575,-0.042800,-1.369880,-9.710405,-0.006817,-0.139010,-0.211953
1781271121.391574,-0.054227,-1.373228,-9.709874,0.073261,-0.164354,-0.271153
1781271121.401574,-0.067681,-1.385112,-9.708099,0.167747,-0.202196,-0.332162
1781271121.411574,-0.085018,-1.406633,-9.704863,0.271954,-0.263357,-0.390422
1781271121.421574,-0.108776,-1.438396,-9.699959,0.374559,-0.349607,-0.445974
1781271121.431574,-0.140035,-1.479882,-9.693303,0.465220,-0.438690,-0.501790
1781271121.441574,-0.178381,-1.529563,-9.684945,0.537712,-0.520372,-0.559785
1781271121.451574,-0.224032,-1.585603,-9.674965,0.593022,-0.614765,-0.610024
1781271121.461574,-0.278718,-1.646836,-9.663291,0.638319,-0.729878,-0.646939
1781271121.471574,-0.343820,-1.712244,-9.649797,0.669160,-0.845133,-0.661868
1781271121.481574,-0.417769,-1.779970,-9.634596,0.676610,-0.926577,-0.668247
1781271121.491574,-0.496149,-1.847352,-9.618176,0.653094,-0.948496,-0.674568
1781271121.501574,-0.572181,-1.911586,-9.601399,0.601957,-0.889633,-0.682776
1781271121.511574,-0.636370,-1.969470,-9.585677,0.509533,-0.710082,-0.689655
1781271121.521574,-0.676016,-2.016360,-9.573248,0.366938,-0.382282,-0.666888
1781271121.531574,-0.678945,-2.047215,-9.566513,0.185166,0.060960,-0.586041
1781271121.541574,-0.641642,-2.060087,-9.566307,0.015587,0.478385,-0.448455
1781271121.551574,-0.574890,-2.058385,-9.570884,-0.090311,0.729682,-0.288523
1781271121.561574,-0.497929,-2.049457,-9.577103,-0.112433,0.758734,-0.141114
1781271121.571574,-0.430051,-2.041994,-9.582007,-0.043087,0.603301,-0.038982
1781271121.581574,-0.384922,-2.044799,-9.583356,0.105214,0.316960,-0.006655
1781271121.591574,-0.371580,-2.064308,-9.579708,0.300698,-0.056626,-0.043495
1781271121.601574,-0.393509,-2.103237,-9.570333,0.499137,-0.437615,-0.137377
1781271121.611574,-0.445546,-2.160253,-9.555290,0.664124,-0.723696,-0.255089
1781271121.621574,-0.514938,-2.231039,-9.535476,0.773142,-0.852458,-0.357311
1781271121.631574,-0.586730,-2.309913,-9.512512,0.821158,-0.825366,-0.413584
1781271121.641574,-0.648974,-2.390627,-9.488514,0.808391,-0.684228,-0.417210
1781271121.651574,-0.694655,-2.467155,-9.465694,0.739719,-0.477710,-0.367161
1781271121.661574,-0.720343,-2.534234,-9.446064,0.621212,-0.229341,-0.265657
1781271121.671574,-0.724736,-2.587595,-9.431275,0.472856,0.027161,-0.118965
1781271121.681574,-0.710691,-2.624936,-9.422033,0.310215,0.242186,0.055540
1781271121.691574,-0.685540,-2.645759,-9.418077,0.152084,0.358071,0.237132
1781271121.701574,-0.659340,-2.651232,-9.418412,0.009138,0.360338,0.392611
1781271121.711574,-0.640816,-2.643419,-9.421889,-0.113529,0.273832,0.496565
1781271121.721574,-0.635116,-2.624823,-9.427471,-0.209258,0.134670,0.542831
1781271121.731574,-0.643790,-2.598454,-9.434179,-0.273726,-0.018685,0.537180
1781271121.741574,-0.665186,-2.567385,-9.441190,-0.310850,-0.147487,0.496129
1781271121.751574,-0.695000,-2.534049,-9.448040,-0.326480,-0.226082,0.437683
1781271121.761574,-0.728072,-2.500527,-9.454478,-0.320346,-0.249385,0.383527
1781271121.771574,-0.759857,-2.468742,-9.460332,-0.292000,-0.223048,0.353940
1781271121.781574,-0.786739,-2.440427,-9.465487,-0.248057,-0.160139,0.352761
1781271121.791574,-0.806811,-2.416917,-9.469835,-0.188362,-0.079594,0.372166
1781271121.801574,-0.820337,-2.399589,-9.473084,-0.111438,-0.010106,0.412282
1781271121.811574,-0.829680,-2.389606,-9.474797,-0.023095,0.031191,0.472203
1781271121.821574,-0.837917,-2.387385,-9.474632,0.061912,0.046602,0.542571
1781271121.831574,-0.847081,-2.391727,-9.472722,0.129010,0.056193,0.625773
1781271121.841574,-0.856561,-2.400231,-9.469717,0.167955,0.086750,0.720255
1781271121.851574,-0.864628,-2.410226,-9.466445,0.177524,0.134407,0.822252
1781271121.861574,-0.870479,-2.419285,-9.463598,0.167689,0.184690,0.917376
1781271121.871574,-0.874184,-2.425525,-9.461660,0.136935,0.224413,0.988843
1781271121.881574,-0.875825,-2.427805,-9.460924,0.095499,0.256184,1.016460
1781271121.891574,-0.874747,-2.425882,-9.461517,0.049566,0.285726,1.002723
1781271121.901574,-0.870090,-2.420058,-9.463436,0.009158,0.318410,0.961034
1781271121.911574,-0.860370,-2.411148,-9.466597,-0.024516,0.368916,0.912668
1781271121.921574,-0.842574,-2.399828,-9.471069,-0.054042,0.464321,0.871074
1781271121.931574,-0.812941,-2.386427,-9.477033,-0.079194,0.599624,0.852056
1781271121.941574,-0.769114,-2.371172,-9.484501,-0.099581,0.754126,0.859937
1781271121.951574,-0.710861,-2.355034,-9.493043,-0.102546,0.904403,0.890546
1781271121.961574,-0.641246,-2.340352,-9.501613,-0.072921,1.002423,0.933959
1781271121.971574,-0.567719,-2.330841,-9.508627,-0.002507,1.002939,0.987012
1781271121.981574,-0.500486,-2.330383,-9.512532,0.107454,0.896890,1.049320
1781271121.991574,-0.448897,-2.342099,-9.512251,0.245350,0.713336,1.112444
1781271122.001574,-0.418272,-2.367381,-9.507397,0.389190,0.494843,1.165670
1781271122.011574,-0.409672,-2.405742,-9.498131,0.517012,0.286653,1.205280
1781271122.021574,-0.420448,-2.454564,-9.485144,0.610152,0.118938,1.236394
1781271122.031574,-0.445693,-2.509166,-9.469679,0.647782,0.012287,1.277470
1781271122.041574,-0.478987,-2.563394,-9.453515,0.616307,-0.004929,1.342226
1781271122.051574,-0.510944,-2.610556,-9.438942,0.516720,0.102061,1.443669
1781271122.061574,-0.530817,-2.644444,-9.428430,0.362152,0.331201,1.587398
1781271122.071574,-0.530633,-2.661195,-9.423737,0.180409,0.619460,1.774843
1781271122.081574,-0.509815,-2.660313,-9.425126,0.008584,0.871832,1.984643
1781271122.091574,-0.476110,-2.644494,-9.431326,-0.123031,0.997791,2.185769
1781271122.101574,-0.442162,-2.618487,-9.440229,-0.202834,0.967762,2.341667
1781271122.111574,-0.419445,-2.587570,-9.449794,-0.230226,0.818191,2.432283
1781271122.121574,-0.415326,-2.556329,-9.458479,-0.213810,0.594198,2.448133
1781271122.131574,-0.432012,-2.527885,-9.465369,-0.170427,0.361818,2.392148
1781271122.141574,-0.465146,-2.503706,-9.470216,-0.121579,0.193305,2.279971
1781271122.151574,-0.505845,-2.483351,-9.473487,-0.085496,0.120807,2.131496
1781271122.161574,-0.545161,-2.465387,-9.476003,-0.069477,0.129507,1.971897
1781271122.171574,-0.576246,-2.448214,-9.478625,-0.070239,0.203445,1.825023
1781271122.181574,-0.594123,-2.430819,-9.482004,-0.078604,0.332278,1.710899
1781271122.191574,-0.595616,-2.412808,-9.486511,-0.091390,0.489808,1.637501
1781271122.201574,-0.580190,-2.394226,-9.492167,-0.098830,0.651870,1.604138
1781271122.211574,-0.549834,-2.375885,-9.498570,-0.094475,0.786949,1.603481
1781271122.221574,-0.508753,-2.359135,-9.505024,-0.078062,0.870869,1.619493
1781271122.231574,-0.462439,-2.344948,-9.510897,-0.056639,0.897462,1.632475
1781271122.241574,-0.415551,-2.333664,-9.515837,-0.033693,0.884125,1.629409
1781271122.251574,-0.370784,-2.325146,-9.519775,-0.011864,0.846765,1.613745
1781271122.261574,-0.329782,-2.319117,-9.522759,0.003511,0.796750,1.599528
1781271122.271574,-0.293230,-2.314965,-9.524969,0.012154,0.747583,1.592030
1781271122.281574,-0.260924,-2.311940,-9.526647,0.015490,0.705166,1.592176
1781271122.291574,-0.232337,-2.309608,-9.527955,0.016132,0.670031,1.603239
1781271122.301574,-0.207070,-2.307646,-9.529015,0.015271,0.643639,1.626157
1781271122.311574,-0.184315,-2.305817,-9.529927,0.011202,0.631139,1.661855
1781271122.321574,-0.162860,-2.303712,-9.530827,0.002178,0.637079,1.712223
1781271122.331574,-0.141736,-2.300771,-9.531875,-0.010564,0.649804,1.782342
1781271122.341574,-0.121206,-2.296508,-9.533186,-0.029134,0.657551,1.861535
1781271122.351574,-0.102640,-2.290582,-9.534831,-0.052134,0.642922,1.932752
1781271122.361574,-0.087962,-2.282732,-9.536861,-0.076364,0.601819,1.983799
1781271122.371574,-0.078650,-2.272601,-9.539363,-0.102370,0.546806,2.006044
1781271122.381574,-0.074575,-2.259885,-9.542415,-0.132774,0.491760,1.997700
1781271122.391574,-0.074163,-2.244282,-9.546099,-0.164477,0.452924,1.957786
1781271122.401574,-0.075678,-2.226081,-9.550347,-0.186148,0.416435,1.898766
1781271122.411574,-0.079786,-2.206343,-9.554892,-0.194688,0.356955,1.832551
1781271122.421574,-0.088783,-2.186170,-9.559446,-0.194375,0.275902,1.759795
1781271122.431574,-0.103370,-2.166181,-9.563848,-0.190636,0.202489,1.682172
1781271122.441574,-0.121596,-2.146471,-9.568076,-0.186079,0.157231,1.596476
1781271122.451574,-0.140369,-2.127079,-9.572149,-0.179302,0.142050,1.497797
1781271122.461574,-0.156805,-2.108659,-9.575971,-0.160701,0.155170,1.384372
1781271122.471574,-0.168390,-2.092821,-9.579251,-0.121924,0.185017,1.264432
1781271122.481574,-0.174583,-2.081839,-9.581536,-0.060312,0.208632,1.149885
1781271122.491574,-0.176815,-2.077950,-9.582340,0.022022,0.216971,1.046394
1781271122.501574,-0.176986,-2.082697,-9.581305,0.115131,0.211561,0.958133
1781271122.511574,-0.176910,-2.096765,-9.578235,0.213455,0.188701,0.886795
1781271122.521574,-0.178867,-2.120569,-9.572949,0.315090,0.143530,0.831226
1781271122.531574,-0.185353,-2.153903,-9.565372,0.410244,0.080280,0.793544
1781271122.541574,-0.197796,-2.195401,-9.555673,0.484510,0.016532,0.781639
1781271122.551574,-0.216040,-2.241773,-9.544499,0.512570,-0.030527,0.795941
1781271122.561574,-0.237901,-2.287411,-9.533147,0.473917,-0.036008,0.832523
1781271122.571574,-0.258455,-2.325502,-9.523405,0.360598,0.030277,0.888656
1781271122.581574,-0.270618,-2.348873,-9.517346,0.171858,0.179639,0.968112
1781271122.591574,-0.268738,-2.351580,-9.516732,-0.062474,0.360368,1.067975
1781271122.601574,-0.255279,-2.331877,-9.521935,-0.284536,0.454414,1.165070
1781271122.611574,-0.241300,-2.294069,-9.531466,-0.434566,0.406792,1.230113
1781271122.621574,-0.237368,-2.247066,-9.542751,-0.477200,0.258174,1.240066
1781271122.631574,-0.249760,-2.201149,-9.553133,-0.411819,0.045162,1.195984
1781271122.641574,-0.282101,-2.165435,-9.560388,-0.264650,-0.195284,1.107543
1781271122.651574,-0.333989,-2.145820,-9.563124,-0.078054,-0.411300,0.984950
1781271122.661574,-0.400684,-2.144014,-9.560947,0.103492,-0.562918,0.846097
1781271122.671574,-0.474556,-2.157952,-9.554417,0.248007,-0.619624,0.712080
