t_utc[s],a_x[m/s2],a_y[m/s2],a_z[m/s2],w_x[rad/s],w_y[rad/s],w_z[rad/s]
1781271320.598862,-0.648854,-4.025273,-8.918887,-0.017717,-0.177468,0.075979
1781271320.608862,-0.669485,-4.021846,-8.918909,-0.043585,-0.204533,0.093375
1781271320.618862,-0.691135,-4.016614,-8.919615,-0.053954,-0.183907,0.109817
1781271320.628862,-0.710244,-4.011469,-8.920429,-0.039777,-0.137177,0.123250
1781271320.638862,-0.725187,-4.008272,-8.920664,-0.011855,-0.079478,0.136235
1781271320.648862,-0.734294,-4.007899,-8.920086,0.026386,-0.003949,0.145146
1781271320.658862,-0.738402,-4.011413,-8.918168,0.075886,0.031419,0.140390
1781271320.668862,-0.740848,-4.018964,-8.914565,0.113207,0.023966,0.117378
1781271320.678862,-0.743232,-4.028362,-8.910123,0.112842,0.015036,0.093452
1781271320.688862,-0.745631,-4.036802,-8.906102,0.088138,0.000557,0.067875
1781271320.698862,-0.749343,-4.043042,-8.902959,0.062438,-0.032020,0.045858
1781271320.708862,-0.754652,-4.047576,-8.900450,0.043839,-0.051616,0.025710
1781271320.718862,-0.759813,-4.050641,-8.898617,0.028063,-0.047867,0.007497
1781271320.728862,-0.763658,-4.052417,-8.897479,0.014687,-0.035665,-0.002347
1781271320.738862,-0.766093,-4.053427,-8.896810,0.007361,-0.023964,-0.010416
1781271320.748862,-0.766276,-4.054303,-8.896394,0.012057,0.011364,-0.009675
1781271320.758862,-0.763729,-4.055647,-8.896001,0.014606,0.039918,-0.002746
1781271320.768862,-0.759122,-4.056807,-8.895866,0.013380,0.058491,-0.004363
1781271320.778862,-0.752935,-4.057530,-8.896062,0.001433,0.070492,-0.014676
1781271320.788862,-0.745991,-4.057920,-8.896469,0.003811,0.067631,-0.021281
1781271320.798862,-0.739274,-4.058832,-8.896614,0.014084,0.064728,-0.022990
1781271320.808862,-0.732822,-4.060938,-8.896186,0.029067,0.059783,-0.020019
1781271320.818862,-0.727093,-4.064461,-8.895048,0.048244,0.047775,-0.023587
1781271320.828862,-0.722224,-4.069939,-8.892939,0.073752,0.038602,-0.024033
1781271320.838862,-0.718452,-4.078225,-8.889448,0.111556,0.024095,-0.016593
1781271320.848862,-0.716889,-4.089700,-8.884301,0.141888,-0.001172,-0.009925
1781271320.858862,-0.717635,-4.102924,-8.878141,0.150078,-0.023957,-0.009209
1781271320.868862,-0.720163,-4.115311,-8.872201,0.128192,-0.039941,-0.009721
1781271320.878862,-0.723488,-4.125287,-8.867297,0.094241,-0.040986,-0.011390
1781271320.888862,-0.726371,-4.131628,-8.864109,0.047621,-0.034837,-0.010834
1781271320.898862,-0.727527,-4.134111,-8.862856,0.004904,-0.018911,-0.033549
1781271320.908862,-0.730172,-4.133521,-8.862913,-0.018240,-0.069569,-0.017098
1781271320.918862,-0.738191,-4.132030,-8.862944,-0.011581,-0.110451,0.019294
1781271320.928862,-0.750293,-4.131447,-8.862200,0.007125,-0.127399,0.051228
1781271320.938862,-0.764250,-4.132475,-8.860527,0.019108,-0.136195,0.060712
1781271320.948862,-0.777091,-4.134158,-8.858625,0.028606,-0.098031,0.059794
1781271320.958862,-0.787835,-4.136302,-8.856675,0.028929,-0.093848,0.050330
1781271320.968862,-0.797226,-4.137981,-8.855050,0.013392,-0.075976,0.037265
1781271320.978862,-0.804149,-4.138218,-8.854315,0.000136,-0.053738,0.031124
1781271320.988862,-0.810720,-4.138306,-8.853674,0.009138,-0.068671,0.031748
1781271320.998862,-0.819124,-4.139220,-8.852473,0.019967,-0.091824,0.033616
1781271321.008862,-0.829198,-4.140700,-8.850842,0.019613,-0.105760,0.030217
1781271321.018862,-0.839455,-4.141471,-8.849515,0.001034,-0.100750,0.024407
1781271321.028862,-0.849706,-4.140048,-8.849202,-0.030931,-0.114195,0.014756
1781271321.038862,-0.861423,-4.135128,-8.850369,-0.075142,-0.136835,0.020613
1781271321.048862,-0.876216,-4.126029,-8.853163,-0.122364,-0.167754,0.049140
1781271321.058862,-0.895879,-4.112750,-8.857371,-0.163403,-0.216322,0.083340
1781271321.068862,-0.920506,-4.095795,-8.862700,-0.195287,-0.250124,0.101000
1781271321.078862,-0.946098,-4.077607,-8.868389,-0.187568,-0.225767,0.100016
1781271321.088862,-0.966429,-4.062567,-8.873099,-0.124527,-0.135942,0.097290
1781271321.098862,-0.976066,-4.055403,-8.875324,-0.011442,0.015486,0.102787
1781271321.108862,-0.970422,-4.059280,-8.874171,0.125902,0.219197,0.130555
1781271321.118862,-0.947212,-4.075511,-8.869233,0.270061,0.435143,0.168370
1781271321.128862,-0.908301,-4.103776,-8.860258,0.404398,0.611627,0.214614
1781271321.138862,-0.857275,-4.142299,-8.847395,0.510239,0.755652,0.257602
1781271321.148862,-0.796418,-4.188349,-8.831378,0.580138,0.871635,0.289065
1781271321.158862,-0.729269,-4.238929,-8.813018,0.611981,0.923297,0.303367
1781271321.168862,-0.662400,-4.289609,-8.793756,0.579865,0.881734,0.305756
1781271321.178862,-0.602833,-4.334136,-8.776199,0.469490,0.761539,0.297907
1781271321.188861,-0.556276,-4.366893,-8.763040,0.313193,0.575338,0.269394
1781271321.198861,-0.526849,-4.385115,-8.755768,0.136230,0.346255,0.240251
1781271321.208861,-0.517292,-4.387677,-8.755060,-0.048519,0.096477,0.207251
1781271321.218861,-0.528360,-4.375375,-8.760552,-0.202540,-0.154257,0.175591
1781271321.228861,-0.557934,-4.351688,-8.770502,-0.310460,-0.343377,0.160275
1781271321.238861,-0.599320,-4.321105,-8.782877,-0.355890,-0.426651,0.165767
1781271321.248861,-0.644250,-4.289432,-8.795211,-0.333327,-0.408820,0.189105
1781271321.258861,-0.684765,-4.262255,-8.805361,-0.246483,-0.311119,0.211974
1781271321.268861,-0.715720,-4.244435,-8.811513,-0.120954,-0.176925,0.225568
1781271321.278861,-0.734721,-4.238345,-8.812886,0.022773,-0.033240,0.234119
1781271321.288861,-0.742084,-4.244604,-8.809258,0.156147,0.093617,0.244372
1781271321.298861,-0.739742,-4.261207,-8.801434,0.257650,0.188184,0.241050
1781271321.308861,-0.730120,-4.284813,-8.790767,0.314869,0.253106,0.226781
1781271321.318861,-0.715480,-4.311947,-8.778693,0.335940,0.287706,0.212279
1781271321.328861,-0.698385,-4.339547,-8.766460,0.322477,0.296192,0.195099
1781271321.338861,-0.681624,-4.365313,-8.754980,0.294247,0.269536,0.178167
1781271321.348861,-0.667526,-4.387716,-8.744864,0.244627,0.218009,0.154576
1781271321.358861,-0.656693,-4.405613,-8.736684,0.187185,0.171224,0.124451
1781271321.368861,-0.648261,-4.419054,-8.730525,0.137040,0.128350,0.092797
1781271321.378861,-0.642932,-4.428800,-8.725981,0.096880,0.078232,0.070771
1781271321.388861,-0.640289,-4.435526,-8.722758,0.067520,0.047531,0.058258
1781271321.398861,-0.639318,-4.440535,-8.720281,0.060521,0.030383,0.049886
1781271321.408861,-0.638658,-4.446489,-8.717295,0.088657,0.037208,0.046845
1781271321.418861,-0.636857,-4.456150,-8.712492,0.145922,0.059200,0.060753
1781271321.428861,-0.633654,-4.472033,-8.704582,0.228677,0.087530,0.080297
1781271321.438861,-0.629085,-4.494732,-8.693211,0.302806,0.111344,0.093947
1781271321.448861,-0.622383,-4.522439,-8.679310,0.347092,0.147075,0.102416
1781271321.458861,-0.611683,-4.552458,-8.664362,0.353109,0.199354,0.090310
1781271321.468861,-0.595645,-4.581905,-8.649945,0.337781,0.248971,0.065877
1781271321.478861,-0.575281,-4.609899,-8.636438,0.320342,0.266756,0.037890
1781271321.488861,-0.554349,-4.636884,-8.623351,0.310285,0.242491,0.018423
1781271321.498861,-0.535630,-4.662862,-8.610519,0.292608,0.204678,0.012382
1781271321.508861,-0.520449,-4.686853,-8.598418,0.265176,0.165429,0.028021
1781271321.518861,-0.509805,-4.708067,-8.587462,0.231358,0.125057,0.053002
1781271321.528861,-0.503701,-4.726129,-8.577896,0.199160,0.092327,0.077040
1781271321.538861,-0.500434,-4.741864,-8.569401,0.179731,0.090189,0.106902
1781271321.548861,-0.497681,-4.756346,-8.561532,0.174095,0.111238,0.133756
1781271321.558861,-0.494066,-4.770447,-8.553893,0.171315,0.136117,0.157182
1781271321.568861,-0.489115,-4.783419,-8.546930,0.148950,0.164326,0.172643
1781271321.578861,-0.481786,-4.793067,-8.541941,0.097663,0.213801,0.185640
1781271321.588861,-0.470380,-4.797873,-8.539878,0.036570,0.268314,0.199466
1781271321.598861,-0.455627,-4.797205,-8.541053,-0.032985,0.295417,0.198829
1781271321.608861,-0.440983,-4.790612,-8.545520,-0.099177,0.247354,0.178615
1781271321.618861,-0.432461,-4.780090,-8.551846,-0.125484,0.129947,0.149958
1781271321.628861,-0.433267,-4.769636,-8.557641,-0.100067,0.015381,0.144641
1781271321.638861,-0.442008,-4.763373,-8.560681,-0.026030,-0.030766,0.179884
1781271321.648861,-0.454210,-4.764317,-8.559517,0.075329,-0.013116,0.256806
1781271321.658861,-0.468798,-4.773301,-8.553721,0.164472,0.006962,0.357579
1781271321.668861,-0.488615,-4.788251,-8.544247,0.228575,-0.023612,0.460951
1781271321.678861,-0.518388,-4.806490,-8.532236,0.252416,-0.100529,0.567066
1781271321.688861,-0.560336,-4.823051,-8.520222,0.206601,-0.176249,0.678730
1781271321.698861,-0.612666,-4.831684,-8.511718,0.090658,-0.218458,0.785548
1781271321.708861,-0.671685,-4.827582,-8.509586,-0.068067,-0.226813,0.843865
1781271321.718861,-0.728917,-4.808440,-8.515711,-0.243745,-0.169021,0.838317
1781271321.728861,-0.783515,-4.774645,-8.529858,-0.387959,-0.159664,0.878465
1781271321.738861,-0.836384,-4.731030,-8.549111,-0.456954,-0.054900,0.909615
1781271321.748861,-0.870970,-4.682562,-8.572323,-0.501525,0.232406,0.835599
1781271321.758861,-0.872967,-4.631361,-8.599894,-0.524696,0.574348,0.758903
1781271321.768861,-0.846259,-4.581013,-8.629470,-0.485459,0.851401,0.784580
1781271321.778861,-0.800683,-4.535677,-8.657714,-0.396251,1.077946,0.900247
1781271321.788861,-0.745024,-4.500294,-8.681117,-0.249038,1.192333,1.034134
1781271321.798861,-0.690358,-4.477568,-8.697387,-0.092674,1.186212,1.158839
1781271321.808861,-0.641053,-4.467699,-8.706243,0.030899,1.068368,0.971555
1781271321.818861,-0.587334,-4.470461,-8.708607,0.135723,0.856962,0.392679
1781271321.828861,-0.532568,-4.484969,-8.704665,0.208645,0.540283,-0.082259
1781271321.838861,-0.489459,-4.504953,-8.696886,0.223180,0.267334,-0.269066
1781271321.848861,-0.459206,-4.526838,-8.687175,0.258078,0.162733,-0.287352
1781271321.858861,-0.428505,-4.554393,-8.674324,0.359636,0.284126,-0.261166
1781271321.868861,-0.382003,-4.593325,-8.655919,0.523780,0.551924,-0.199557
1781271321.878861,-0.314971,-4.646971,-8.629895,0.706689,0.823985,-0.111122
1781271321.888861,-0.234243,-4.715275,-8.595298,0.869860,0.937612,-0.035646
1781271321.898861,-0.154268,-4.795350,-8.552680,0.992404,0.908137,-0.018428
1781271321.908861,-0.071846,-4.883746,-8.503580,1.073879,0.996239,-0.059022
1781271321.918861,0.022053,-4.975654,-8.450370,1.080878,1.103978,-0.127932
1781271321.928861,0.127061,-5.063156,-8.397291,0.984172,1.171681,-0.225982
1781271321.938861,0.238907,-5.137252,-8.349737,0.785112,1.131948,-0.339649
1781271321.948861,0.344977,-5.190377,-8.313160,0.515080,0.895170,-0.445813
1781271321.958861,0.429469,-5.220671,-8.290306,0.266654,0.534129,-0.502488
1781271321.968861,0.484988,-5.233067,-8.279475,0.096997,0.173555,-0.501978
1781271321.978860,0.512141,-5.234758,-8.276794,0.010445,-0.116292,-0.453493
1781271321.988860,0.515739,-5.232045,-8.278291,-0.023756,-0.299093,-0.369945
1781271321.998860,0.505624,-5.225852,-8.282823,-0.092581,-0.341940,-0.278479
1781271322.008860,0.489916,-5.211685,-8.292682,-0.229354,-0.344011,-0.218065
1781271322.018860,0.474871,-5.184531,-8.310548,-0.396556,-0.280723,-0.238484
1781271322.028860,0.474895,-5.146248,-8.334298,-0.475836,-0.065504,-0.369415
1781271322.038860,0.506086,-5.105056,-8.357743,-0.449661,0.257340,-0.553185
1781271322.048860,0.575338,-5.066373,-8.376728,-0.397875,0.648693,-0.681915
1781271322.058860,0.682330,-5.029306,-8.390933,-0.393279,1.070539,-0.680233
1781271322.068860,0.819967,-4.988801,-8.402688,-0.468411,1.427010,-0.595280
1781271322.078860,0.980400,-4.939811,-8.414344,-0.578476,1.718162,-0.526261
1781271322.088860,1.159916,-4.881650,-8.425355,-0.671091,1.948812,-0.477096
1781271322.098860,1.353152,-4.817086,-8.433629,-0.717141,2.097301,-0.438816
1781271322.108860,1.555287,-4.751410,-8.435992,-0.676269,2.200005,-0.437636
1781271322.118860,1.767864,-4.692962,-8.426785,-0.514579,2.343232,-0.471155
1781271322.128860,1.995810,-4.652056,-8.398428,-0.228655,2.549170,-0.479313
1781271322.138860,2.237977,-4.637976,-8.344905,0.127558,2.716518,-0.433684
1781271322.148860,2.488783,-4.652647,-8.265225,0.433390,2.898972,-0.340664
1781271322.158860,2.751794,-4.689070,-8.160416,0.621465,3.185872,-0.232446
1781271322.168860,3.028474,-4.738746,-8.032543,0.732894,3.415855,-0.148592
1781271322.178860,3.311432,-4.795319,-7.885861,0.787298,3.531092,-0.124270
1781271322.188860,3.599734,-4.852215,-7.722920,0.800098,3.684692,-0.182280
1781271322.198860,3.901074,-4.904663,-7.541081,0.821596,3.896506,-0.312832
1781271322.208860,4.216419,-4.951105,-7.338035,0.816956,4.096384,-0.399287
1781271322.218860,4.537351,-4.989065,-7.117468,0.683543,4.240574,-0.377080
1781271322.228860,4.854172,-5.011061,-6.889386,0.362776,4.313595,-0.294725
1781271322.238860,5.157558,-5.006543,-6.668946,-0.147210,4.234855,-0.229162
1781271322.248860,5.439134,-4.963389,-6.475067,-0.823628,3.958366,-0.240604
1781271322.258860,5.691431,-4.870955,-6.327125,-1.557572,3.446137,-0.365561
1781271322.268860,5.910492,-4.724113,-6.237196,-2.224916,2.795253,-0.596566
1781271322.278860,6.098655,-4.526266,-6.202618,-2.681858,2.193770,-0.872156
1781271322.288860,6.266928,-4.293454,-6.200269,-2.774919,1.862693,-1.123316
1781271322.298860,6.433279,-4.053126,-6.191639,-2.419072,1.908689,-1.303740
1781271322.308860,6.613071,-3.838005,-6.139169,-1.663634,2.219881,-1.365191
1781271322.318860,6.810156,-3.675874,-6.021793,-0.710813,2.621663,-1.285417
1781271322.328860,7.022476,-3.575882,-5.834929,0.169047,3.057329,-1.156376
1781271322.338860,7.251541,-3.522303,-5.581126,0.796619,3.561293,-1.163882
1781271322.348860,7.500573,-3.485422,-5.265265,1.234145,3.993484,-1.354596
1781271322.358860,7.762429,-3.442099,-4.900831,1.485971,4.302445,-1.605411
1781271322.368860,8.031788,-3.373723,-4.496789,1.466047,4.635459,-1.902313
1781271322.378860,8.304612,-3.261360,-4.062229,1.261245,4.855093,-2.299874
1781271322.388860,8.572478,-3.089860,-3.614566,1.001236,4.876974,-2.801371
1781271322.398860,8.827931,-2.852396,-3.166417,0.723540,4.823591,-3.323996
1781271322.408860,9.064537,-2.550439,-2.723844,0.431354,4.698284,-3.794952
1781271322.418860,9.273364,-2.192513,-2.299278,0.123533,4.372371,-4.148278
1781271322.428860,9.443842,-1.794229,-1.921276,-0.142465,3.689037,-4.335694
1781271322.438860,9.573438,-1.375408,-1.600825,-0.372770,3.165009,-4.359360
1781271322.448860,9.667789,-0.955233,-1.316082,-0.489901,2.874268,-4.222474
1781271322.458860,9.731847,-0.552709,-1.050625,-0.475081,2.686307,-3.943241
1781271322.468860,9.770412,-0.179594,-0.794731,-0.352576,2.610831,-3.630447
1781271322.478860,9.788269,0.164610,-0.540221,-0.138848,2.602222,-3.384438
1781271322.488860,9.788287,0.489265,-0.285460,0.100942,2.599367,-3.260208
1781271322.498860,9.771319,0.807731,-0.036606,0.303989,2.506862,-3.269711
1781271322.508860,9.737202,1.132391,0.194150,0.439801,2.286411,-3.386554
1781271322.518860,9.685668,1.471167,0.395825,0.500540,1.986327,-3.561395
1781271322.528860,9.616468,1.827066,0.563716,0.488485,1.660733,-3.762943
1781271322.538860,9.529065,2.200203,0.697719,0.402830,1.321408,-3.970984
1781271322.548860,9.423480,2.586752,0.797635,0.240142,0.940707,-4.123479
1781271322.558860,9.302378,2.975191,0.862824,0.011226,0.510179,-4.126329
1781271322.568860,9.172002,3.349025,0.890407,-0.255354,-0.023223,-3.969181
1781271322.578860,9.039479,3.696231,0.874557,-0.526364,-0.647011,-3.723561
1781271322.588860,8.909471,4.012385,0.815596,-0.773494,-1.220599,-3.440750
1781271322.598860,8.782978,4.299057,0.723429,-0.975343,-1.695826,-3.193558
1781271322.608860,8.657771,4.563351,0.604734,-1.148395,-2.112133,-3.033031
1781271322.618860,8.530685,4.812332,0.464607,-1.320764,-2.495531,-2.907607
1781271322.628860,8.400865,5.047645,0.306221,-1.439811,-2.870770,-2.769851
1781271322.638860,8.268146,5.269487,0.130650,-1.455962,-3.139970,-2.621668
1781271322.648860,8.131755,5.478838,-0.059026,-1.368539,-3.306739,-2.494268
1781271322.658860,7.988971,5.679421,-0.257877,-1.194804,-3.418505,-2.453265
1781271322.668860,7.832557,5.880134,-0.466943,-1.067835,-3.544728,-2.538303
1781271322.678860,7.656648,6.086841,-0.682822,-0.998801,-3.602970,-2.635893
1781271322.688860,7.466994,6.291884,-0.892990,-0.852317,-3.436292,-2.554113
1781271322.698860,7.282505,6.475513,-1.086338,-0.505809,-2.959174,-2.216029
1781271322.708860,7.120947,6.622540,-1.260231,0.098223,-2.222492,-1.801142
1781271322.718860,6.988568,6.730689,-1.420090,0.880309,-1.378579,-1.467113
1781271322.728860,6.881932,6.805465,-1.576638,1.678043,-0.660666,-1.280210
1781271322.738860,6.788526,6.859523,-1.738960,2.160248,-0.250471,-1.269746
1781271322.748860,6.697713,6.907142,-1.895870,2.008720,-0.107391,-1.266746
1781271322.758860,6.611226,6.954874,-2.021554,1.359004,-0.135663,-1.142145
1781271322.768860,6.536456,7.002661,-2.098911,0.677407,-0.049115,-0.927256
1781271322.778860,6.482473,7.045447,-2.123389,0.389352,0.412802,-0.711892
1781271322.788860,6.454627,7.075412,-2.108638,0.622995,1.098526,-0.538652
1781271322.798860,6.450602,7.088383,-2.077176,1.051523,1.707800,-0.410376
1781271322.808860,6.464362,7.086452,-2.040623,1.417534,2.108167,-0.319235
1781271322.818860,6.486713,7.074024,-2.012665,1.720023,2.121953,-0.293430
1781271322.828860,6.501788,7.060181,-2.012675,1.780189,1.702876,-0.401863
1781271322.838860,6.498612,7.056899,-2.034306,1.525418,1.283760,-0.518349
1781271322.848860,6.492033,7.058539,-2.049617,1.258996,1.296734,-0.362007
1781271322.858860,6.509320,7.042469,-2.049952,1.526338,1.669191,-0.009719
1781271322.868860,6.556340,7.001436,-2.040387,1.931255,2.239727,0.197363
1781271322.878860,6.621086,6.939820,-2.041578,2.357506,2.339129,0.285614
1781271322.888860,6.681471,6.874920,-2.064457,2.345899,1.980757,0.138092
1781271322.898860,6.717732,6.829417,-2.097811,1.937585,1.511439,-0.139948
1781271322.908860,6.734103,6.809159,-2.111293,1.409785,1.553766,-0.306632
1781271322.918860,6.750179,6.806707,-2.067037,0.909405,2.050207,-0.299889
1781271322.928860,6.783292,6.801582,-1.972910,0.843755,2.422819,-0.022000
1781271322.938860,6.846633,6.768960,-1.862761,1.125597,2.720347,0.460644
1781271322.948860,6.946356,6.691809,-1.769416,1.809802,2.723034,1.031881
1781271322.958860,7.084696,6.553343,-1.737172,3.183759,2.934118,1.734429
1781271322.968860,7.275338,6.323651,-1.793667,5.150269,2.900667,2.548031
1781271322.978860,7.472602,6.030946,-1.977596,5.654446,1.368583,2.269770
1781271322.988860,7.566628,5.851885,-2.160346,2.035022,0.419066,0.222589
1781271322.998860,7.524859,5.936378,-2.066976,-2.590825,1.279529,-2.174885
1781271323.008860,7.374167,6.212937,-1.769275,-3.648678,1.083654,-3.352498
1781271323.018860,7.180902,6.493508,-1.553016,-2.111423,-0.199330,-2.789120
1781271323.028860,7.045901,6.662717,-1.458831,-0.573324,0.532578,-1.362296
1781271323.038860,7.018395,6.710399,-1.371072,0.720808,1.988086,-0.055701
1781271323.048860,7.070476,6.673044,-1.282771,1.121690,2.600877,0.622242
1781271323.058860,7.158812,6.602111,-1.149219,0.667919,2.940638,1.050438
1781271323.068860,7.278875,6.496039,-0.987980,0.991675,2.844882,1.673846
1781271323.078860,7.425847,6.347193,-0.850076,1.254909,3.005324,2.035108
1781271323.088860,7.579846,6.181386,-0.698026,1.119423,2.903074,2.088754
1781271323.098860,7.721081,6.017211,-0.579995,1.338900,2.110317,1.986013
1781271323.108860,7.851074,5.850878,-0.535159,1.740780,1.417502,2.149059
1781271323.118860,8.009962,5.626769,-0.567078,2.524459,0.786837,3.222712
1781271323.128860,8.223923,5.289105,-0.705669,3.474600,-0.089792,4.461967
1781271323.138860,8.454478,4.876218,-0.918895,3.113547,-0.897695,4.627976
1781271323.148860,8.642563,4.486516,-1.139419,1.540085,-1.734499,3.921635
1781271323.158860,8.766698,4.169582,-1.375419,0.121957,-2.835203,3.205993
1781271323.168860,8.844477,3.896246,-1.650538,-0.757482,-3.646595,3.285829
1781271323.178860,8.912529,3.586768,-1.953328,-1.107434,-3.958620,4.135078
1781271323.188860,8.979309,3.211172,-2.272237,-1.294812,-4.068099,4.736713
1781271323.198860,9.023969,2.818943,-2.594090,-1.662317,-4.015758,4.720122
1781271323.208860,9.042660,2.462544,-2.879864,-2.336275,-3.371780,4.343911
1781271323.218860,9.057357,2.185659,-3.056545,-3.276230,-1.843058,3.569119
1781271323.228860,9.095369,2.031472,-3.051590,-4.296297,0.226013,2.353359
